time (s)	det(V)
87157.432961	-0.065905	
87157.434962	-0.074019	
87157.436962	-0.077167	
87157.438962	-0.082649	
87157.440961	-0.086802	
87157.442961	-0.092508	
87157.444963	-0.097818	
87157.448970	-0.103919	
87157.450972	-0.115549	
87157.452972	-0.121893	
87157.454972	-0.129046	
87157.456971	-0.136379	
87157.458972	-0.143099	
87157.460972	-0.152075	
87157.464969	-0.160670	
87157.466973	-0.178801	
87157.468972	-0.188466	
87157.472971	-0.199146	
87157.474972	-0.220018	
87157.476971	-0.231079	
87157.478971	-0.242866	
87157.480973	-0.255744	
87157.482971	-0.269604	
87157.484971	-0.284574	
87157.486975	-0.299455	
87157.490980	-0.314919	
87157.492981	-0.348314	
87157.494979	-0.364353	
87157.496980	-0.381741	
87157.498978	-0.400703	
87157.500980	-0.419554	
87157.502979	-0.435480	
87157.506978	-0.453226	
87157.510978	-0.495322	
87157.512981	-0.538164	
87157.514980	-0.559310	
87157.516980	-0.580984	
87157.518979	-0.603238	
87157.520980	-0.623307	
87157.522979	-0.644579	
87157.524980	-0.665992	
87157.528980	-0.685421	
87157.532979	-0.722065	
87157.534979	-0.754898	
87157.536979	-0.769226	
87157.538979	-0.782100	
87157.540980	-0.793079	
87157.544979	-0.803062	
87157.546980	-0.817035	
87157.548980	-0.821096	
87157.552979	-0.822470	
87157.554980	-0.819065	
87157.556981	-0.813571	
87157.558979	-0.807663	
87157.560980	-0.798064	
87157.562978	-0.787954	
87157.566985	-0.776913	
87157.570985	-0.747104	
87157.572986	-0.711397	
87157.574987	-0.691665	
87157.576985	-0.671399	
87157.578986	-0.652441	
87157.582983	-0.629863	
87157.584986	-0.584342	
87157.586985	-0.562029	
87157.590985	-0.539597	
87157.592985	-0.489789	
87157.594985	-0.466393	
87157.596984	-0.444294	
87157.598985	-0.426468	
87157.600985	-0.405013	
87157.604995	-0.382819	
87157.608995	-0.337734	
87157.610995	-0.293363	
87157.612996	-0.270888	
87157.614995	-0.250712	
87157.616996	-0.230956	
87157.620993	-0.211146	
87157.622996	-0.170674	
87157.624996	-0.151160	
87157.628995	-0.132665	
87157.630997	-0.092038	
87157.632996	-0.072582	
87157.634995	-0.053963	
87157.636996	-0.034223	
87157.638996	-0.014246	
87157.640995	0.006100	
87157.644995	0.025232	
87157.646996	0.064813	
87157.648997	0.084718	
87157.650995	0.106681	
87157.652996	0.126873	
87157.654996	0.147305	
87157.656995	0.169007	
87157.658995	0.189872	
87157.660997	0.211003	
87157.664994	0.232533	
87157.666995	0.278177	
87157.668997	0.301372	
87157.670995	0.324778	
87157.672996	0.348319	
87157.674996	0.371280	
87157.678994	0.411104	
87157.680996	0.433381	
87157.682996	0.455634	
87157.684996	0.478577	
87157.688995	0.501227	
87157.690995	0.545904	
87157.692996	0.566590	
87157.694996	0.585788	
87157.696995	0.605883	
87157.700993	0.623156	
87157.702996	0.655579	
87157.704995	0.668699	
87157.706996	0.682262	
87157.708997	0.694953	
87157.710996	0.705269	
87157.712997	0.713514	
87157.714995	0.720214	
87157.716996	0.726238	
87157.720994	0.729365	
87157.724993	0.731284	
87157.726996	0.728489	
87157.728996	0.724812	
87157.732994	0.712086	
87157.734995	0.703733	
87157.738993	0.694002	
87157.740995	0.671745	
87157.742996	0.658156	
87157.746995	0.645337	
87157.748996	0.616187	
87157.750997	0.601160	
87157.752995	0.586738	
87157.754995	0.569438	
87157.756995	0.552413	
87157.760995	0.534635	
87157.764995	0.501418	
87157.766996	0.465951	
87157.768995	0.449994	
87157.770995	0.431594	
87157.772995	0.415539	
87157.776994	0.399714	
87157.778994	0.372139	
87157.780995	0.355793	
87157.784995	0.340407	
87157.786996	0.310650	
87157.788995	0.295157	
87157.790995	0.282073	
87157.792998	0.266527	
87157.794996	0.253532	
87157.796998	0.239449	
87157.800998	0.226928	
87157.802998	0.201646	
87157.804997	0.192235	
87157.806998	0.180830	
87157.808997	0.170097	
87157.810998	0.159168	
87157.812997	0.150298	
87157.814999	0.139891	
87157.816997	0.130505	
87157.818997	0.120898	
87157.822997	0.112164	
87157.824998	0.097075	
87157.826998	0.089657	
87157.828998	0.082533	
87157.830997	0.075378	
87157.832998	0.068788	
87157.836996	0.062684	
87157.838997	0.051096	
87157.840998	0.045520	
87157.844997	0.040724	
87157.846997	0.033114	
87157.848998	0.028646	
87157.850998	0.023918	
87157.852997	0.021357	
87157.854997	0.017373	
87157.858998	0.013460	
87157.862997	0.008079	
87157.864997	0.003737	
87157.866998	0.001496	
87157.868997	-0.000940	
87157.870998	-0.002473	
87157.874996	-0.004986	
87157.876999	-0.009396	
87157.878998	-0.010213	
87157.882997	-0.011067	
87157.884999	-0.013491	
87157.886998	-0.013965	
87157.888998	-0.015335	
87157.890997	-0.015364	
87157.892998	-0.016789	
87157.894998	-0.019546	
87157.898999	-0.019170	
87157.901000	-0.020318	
87157.903000	-0.020688	
87157.905000	-0.020926	
87157.907000	-0.021254	
87157.909001	-0.021937	
87157.911000	-0.022011	
87157.912999	-0.022055	
87157.915000	-0.023997	
87157.919009	-0.023661	
87157.921010	-0.024165	
87157.923009	-0.023163	
87157.925009	-0.023212	
87157.927009	-0.023519	
87157.929014	-0.024185	
87157.931009	-0.023844	
87157.933009	-0.024620	
87157.935009	-0.025119	
87157.939009	-0.025917	
87157.941009	-0.025161	
87157.943010	-0.024586	
87157.945010	-0.024947	
87157.947009	-0.024292	
87157.949008	-0.024748	
87157.951009	-0.024247	
87157.953010	-0.025695	
87157.955009	-0.026423	
87157.957013	-0.025257	
87157.961011	-0.025644	
87157.963012	-0.025455	
87157.965012	-0.024754	
87157.967011	-0.024566	
87157.969013	-0.025279	
87157.971011	-0.025096	
87157.975009	-0.024740	
87157.977012	-0.026166	
87157.979012	-0.025818	
87157.983011	-0.027158	
87157.985013	-0.024662	
87157.987012	-0.025403	
87157.989012	-0.025111	
87157.991013	-0.025072	
87157.993015	-0.024711	
87157.997011	-0.026720	
87158.001011	-0.025798	
87158.003013	-0.024353	
87158.005012	-0.025342	
87158.007012	-0.025188	
87158.009013	-0.025200	
87158.013010	-0.025098	
87158.015012	-0.025681	
87158.017012	-0.024810	
87158.021011	-0.025244	
87158.023012	-0.024518	
87158.025012	-0.024264	
87158.027012	-0.024587	
87158.029012	-0.023421	
87158.031011	-0.024256	
87158.035014	-0.024679	
87158.039015	-0.024127	
87158.041017	-0.023359	
87158.043016	-0.023757	
87158.045016	-0.023454	
87158.047017	-0.023157	
87158.051013	-0.023190	
87158.053016	-0.023504	
87158.055016	-0.023940	
87158.059015	-0.023585	
87158.061015	-0.022369	
87158.063015	-0.022183	
87158.065016	-0.022513	
87158.067017	-0.021235	
87158.069017	-0.021635	
87158.073013	-0.022830	
87158.077016	-0.022640	
87158.079016	-0.020234	
87158.081015	-0.021525	
87158.083016	-0.021747	
87158.085015	-0.021059	
87158.089014	-0.021378	
87158.091016	-0.021323	
87158.093015	-0.021406	
87158.097015	-0.021986	
87158.099015	-0.020370	
87158.101015	-0.020236	
87158.103015	-0.020507	
87158.105017	-0.020374	
87158.107015	-0.020182	
87158.111013	-0.021580	
87158.115015	-0.020532	
87158.117016	-0.020227	
87158.119016	-0.019540	
87158.121017	-0.020091	
87158.123015	-0.019553	
87158.127013	-0.019066	
87158.129017	-0.021050	
87158.131017	-0.019769	
87158.135015	-0.020072	
87158.137015	-0.018973	
87158.139015	-0.019644	
87158.141016	-0.019028	
87158.143017	-0.019500	
87158.145015	-0.018867	
87158.149019	-0.020417	
87158.153019	-0.018724	
87158.155021	-0.019341	
87158.157019	-0.018443	
87158.159019	-0.018948	
87158.161020	-0.018591	
87158.165017	-0.017444	
87158.167019	-0.018533	
87158.169019	-0.018864	
87158.173019	-0.018380	
87158.175020	-0.017838	
87158.177021	-0.017672	
87158.179019	-0.018412	
87158.181020	-0.016976	
87158.183019	-0.017634	
87158.185019	-0.017975	
87158.189020	-0.018335	
87158.191020	-0.017412	
87158.193020	-0.017093	
87158.195025	-0.017370	
87158.197025	-0.017129	
87158.199025	-0.017539	
87158.201024	-0.016621	
87158.203023	-0.017134	
87158.205023	-0.017799	
87158.207025	-0.016896	
87158.211023	-0.017176	
87158.213024	-0.015775	
87158.215023	-0.016034	
87158.217024	-0.015592	
87158.219025	-0.015462	
87158.221024	-0.015437	
87158.225021	-0.015612	
87158.227024	-0.016747	
87158.229023	-0.016286	
87158.233023	-0.016320	
87158.235023	-0.014577	
87158.237023	-0.015192	
87158.239024	-0.015106	
87158.241024	-0.014430	
87158.245021	-0.014293	
87158.247025	-0.015044	
87158.249023	-0.015695	
87158.251025	-0.014702	
87158.253025	-0.014314	
87158.255024	-0.014421	
87158.257024	-0.014036	
87158.259023	-0.014268	
87158.261023	-0.014479	
87158.265023	-0.014185	
87158.269023	-0.014903	
87158.271023	-0.014128	
87158.273023	-0.013468	
87158.275026	-0.014011	
87158.277024	-0.014247	
87158.279024	-0.012528	
87158.281024	-0.013189	
87158.283024	-0.014185	
87158.287023	-0.014224	
87158.291023	-0.013683	
87158.293023	-0.013202	
87158.295029	-0.012829	
87158.297028	-0.012643	
87158.299028	-0.012959	
87158.303026	-0.012929	
87158.305028	-0.013395	
87158.307027	-0.013764	
87158.311027	-0.013112	
87158.313028	-0.012293	
87158.315027	-0.012268	
87158.317028	-0.012699	
87158.319027	-0.012308	
87158.321028	-0.011816	
87158.323026	-0.012987	
87158.325028	-0.012781	
87158.329027	-0.012406	
87158.331027	-0.011333	
87158.333027	-0.011244	
87158.335028	-0.011590	
87158.337027	-0.011271	
87158.339029	-0.010712	
87158.343025	-0.011614	
87158.345028	-0.011717	
87158.347028	-0.011700	
87158.349026	-0.012519	
87158.351029	-0.010918	
87158.353027	-0.010400	
87158.355026	-0.010644	
87158.357027	-0.010346	
87158.359027	-0.010796	
87158.363026	-0.011258	
87158.365028	-0.011671	
87158.369028	-0.011525	
87158.371028	-0.010295	
87158.373028	-0.010893	
87158.375027	-0.011256	
87158.377028	-0.011397	
87158.381026	-0.011163	
87158.383028	-0.013090	
87158.385029	-0.013361	
87158.389027	-0.013277	
87158.391028	-0.012394	
87158.393028	-0.012801	
87158.395027	-0.014036	
87158.397031	-0.013294	
87158.399031	-0.014363	
87158.401037	-0.015654	
87158.405033	-0.015991	
87158.407033	-0.016525	
87158.409034	-0.017522	
87158.411034	-0.017112	
87158.413033	-0.017886	
87158.415034	-0.019529	
87158.417034	-0.020336	
87158.419033	-0.020962	
87158.421036	-0.021772	
87158.425033	-0.022805	
87158.427033	-0.025147	
87158.429034	-0.024997	
87158.431033	-0.026175	
87158.433034	-0.027801	
87158.435035	-0.028455	
87158.437034	-0.030471	
87158.439034	-0.031384	
87158.441034	-0.032986	
87158.445033	-0.034499	
87158.447034	-0.038989	
87158.449034	-0.038425	
87158.451034	-0.040871	
87158.453034	-0.042880	
87158.455034	-0.045012	
87158.457034	-0.045758	
87158.461033	-0.049167	
87158.463033	-0.053628	
87158.465033	-0.056575	
87158.467034	-0.059560	
87158.469034	-0.061021	
87158.471034	-0.064788	
87158.473033	-0.067361	
87158.475033	-0.070841	
87158.477034	-0.073550	
87158.479033	-0.076882	
87158.483034	-0.081998	
87158.485033	-0.090497	
87158.487034	-0.095658	
87158.489033	-0.099470	
87158.491034	-0.103828	
87158.493037	-0.109532	
87158.495040	-0.115384	
87158.497041	-0.122707	
87158.499043	-0.128671	
87158.501044	-0.135821	
87158.505041	-0.143415	
87158.507043	-0.158731	
87158.509042	-0.165845	
87158.511041	-0.175631	
87158.513041	-0.184143	
87158.515042	-0.194357	
87158.517043	-0.203859	
87158.521040	-0.214526	
87158.523042	-0.237526	
87158.525042	-0.250400	
87158.527041	-0.263581	
87158.529047	-0.275329	
87158.531044	-0.288765	
87158.533044	-0.303016	
87158.535043	-0.317668	
87158.537044	-0.331922	
87158.541041	-0.347270	
87158.545042	-0.378331	
87158.547044	-0.408752	
87158.549043	-0.424189	
87158.551043	-0.435280	
87158.553043	-0.450171	
87158.555043	-0.464635	
87158.559042	-0.479819	
87158.561044	-0.509537	
87158.563043	-0.522476	
87158.567043	-0.536376	
87158.569044	-0.560183	
87158.571044	-0.570907	
87158.573044	-0.580790	
87158.575043	-0.588957	
87158.577044	-0.596489	
87158.581044	-0.604401	
87158.585043	-0.613976	
87158.587044	-0.618014	
87158.591042	-0.618827	
87158.593044	-0.616009	
87158.597043	-0.614155	
87158.599042	-0.606981	
87158.601043	-0.601627	
87158.605043	-0.594106	
87158.607044	-0.576283	
87158.609044	-0.567105	
87158.611043	-0.556998	
87158.613043	-0.546573	
87158.615043	-0.535433	
87158.619044	-0.522689	
87158.623043	-0.496643	
87158.625043	-0.466980	
87158.629041	-0.438208	
87158.631044	-0.426563	
87158.635042	-0.411501	
87158.637043	-0.378898	
87158.639044	-0.361632	
87158.643043	-0.343641	
87158.645043	-0.305946	
87158.647044	-0.287511	
87158.649044	-0.269357	
87158.651043	-0.248995	
87158.653043	-0.230043	
87158.657044	-0.211924	
87158.659044	-0.170349	
87158.661043	-0.148867	
87158.663044	-0.126925	
87158.665044	-0.105228	
87158.667044	-0.083419	
87158.669044	-0.060659	
87158.671043	-0.038544	
87158.673043	-0.014657	
87158.677043	0.008444	
87158.681043	0.055745	
87158.683045	0.104447	
87158.685047	0.127085	
87158.687043	0.151325	
87158.689044	0.174695	
87158.693042	0.197755	
87158.695044	0.244326	
87158.697046	0.268236	
87158.701051	0.290902	
87158.703051	0.337259	
87158.705052	0.358053	
87158.707051	0.379680	
87158.709053	0.396341	
87158.711052	0.412263	
87158.713051	0.429629	
87158.717051	0.448014	
87158.719051	0.482618	
87158.721052	0.498174	
87158.723051	0.513367	
87158.725051	0.526078	
87158.727052	0.537570	
87158.729052	0.548937	
87158.731053	0.557760	
87158.733050	0.565798	
87158.737051	0.573110	
87158.739051	0.583501	
87158.741052	0.587588	
87158.743051	0.590405	
87158.745051	0.591834	
87158.747051	0.591431	
87158.751050	0.587193	
87158.753051	0.584455	
87158.755051	0.579897	
87158.757051	0.575863	
87158.761051	0.569071	
87158.763052	0.555374	
87158.765051	0.546757	
87158.767052	0.538266	
87158.769052	0.529363	
87158.773050	0.518290	
87158.775052	0.496221	
87158.777051	0.484134	
87158.779051	0.472349	
87158.781059	0.460805	
87158.783061	0.447733	
87158.785061	0.434638	
87158.787063	0.422010	
87158.789062	0.408828	
87158.793059	0.397156	
87158.797059	0.374138	
87158.799064	0.347394	
87158.801066	0.333890	
87158.803067	0.320062	
87158.805068	0.306422	
87158.807068	0.293547	
87158.809067	0.280334	
87158.811068	0.266627	
87158.813068	0.253168	
87158.817068	0.240239	
87158.819067	0.216570	
87158.821067	0.205174	
87158.823067	0.194451	
87158.825068	0.183416	
87158.827068	0.171354	
87158.829067	0.161573	
87158.831068	0.151309	
87158.833068	0.140558	
87158.835067	0.131155	
87158.839071	0.121301	
87158.841069	0.105510	
87158.843069	0.097657	
87158.845070	0.089163	
87158.847070	0.082192	
87158.849070	0.075381	
87158.853068	0.067496	
87158.855069	0.055732	
87158.857070	0.050122	
87158.861069	0.044465	
87158.865068	0.030243	
87158.867069	0.026544	
87158.869069	0.023176	
87158.873067	0.019448	
87158.877067	0.011354	
87158.879069	0.006660	
87158.881069	0.003977	
87158.883071	0.001333	
87158.885071	-0.001033	
87158.887069	-0.002995	
87158.891069	-0.004504	
87158.893069	-0.009750	
87158.895070	-0.010385	
87158.899071	-0.012025	
87158.901070	-0.014816	
87158.903069	-0.015793	
87158.905069	-0.016625	
87158.907070	-0.017760	
87158.909070	-0.019308	
87158.911069	-0.020090	
87158.915070	-0.020954	
87158.917070	-0.022468	
87158.919070	-0.021785	
87158.921070	-0.022110	
87158.923070	-0.022522	
87158.925070	-0.024085	
87158.927071	-0.023159	
87158.929069	-0.025064	
87158.931071	-0.024873	
87158.935067	-0.025892	
87158.937070	-0.025476	
87158.939070	-0.025992	
87158.941070	-0.025910	
87158.943071	-0.025656	
87158.945070	-0.026495	
87158.947073	-0.026440	
87158.951067	-0.027571	
87158.953070	-0.027578	
87158.955070	-0.028016	
87158.957069	-0.027568	
87158.959073	-0.026829	
87158.961082	-0.027390	
87158.963081	-0.027652	
87158.965080	-0.028699	
87158.967082	-0.027280	
87158.971079	-0.027302	
87158.973081	-0.028971	
87158.977081	-0.028916	
87158.979081	-0.028417	
87158.981082	-0.029137	
87158.983082	-0.027591	
87158.985082	-0.028148	
87158.989079	-0.028111	
87158.991081	-0.028571	
87158.993081	-0.029010	
87158.997081	-0.028820	
87158.999083	-0.028776	
87159.001082	-0.027646	
87159.003085	-0.028151	
87159.005083	-0.028065	
87159.007087	-0.027972	
87159.009086	-0.030063	
87159.013085	-0.027717	
87159.015087	-0.028823	
87159.017086	-0.027048	
87159.019086	-0.026559	
87159.021086	-0.027083	
87159.023085	-0.027577	
87159.025085	-0.026605	
87159.027086	-0.027573	
87159.029085	-0.028344	
87159.031084	-0.026729	
87159.035086	-0.027171	
87159.037086	-0.026879	
87159.039085	-0.027044	
87159.041086	-0.025139	
87159.043085	-0.026090	
87159.045085	-0.025986	
87159.049083	-0.025587	
87159.051086	-0.026941	
87159.053085	-0.026958	
87159.057085	-0.026510	
87159.059085	-0.025070	
87159.061086	-0.024581	
87159.063085	-0.025049	
87159.065087	-0.024609	
87159.067086	-0.024534	
87159.071086	-0.026220	
87159.073085	-0.025067	
87159.075086	-0.024720	
87159.077086	-0.024127	
87159.081084	-0.023301	
87159.083085	-0.024401	
87159.085087	-0.022705	
87159.089083	-0.023732	
87159.093083	-0.024693	
87159.095086	-0.023402	
87159.097086	-0.022724	
87159.099086	-0.023310	
87159.101085	-0.023354	
87159.103090	-0.022175	
87159.105086	-0.022253	
87159.107089	-0.023185	
87159.109093	-0.023231	
87159.113090	-0.023126	
87159.115090	-0.022349	
87159.117090	-0.022494	
87159.119090	-0.021602	
87159.121090	-0.022003	
87159.123090	-0.021991	
87159.125091	-0.020992	
87159.129087	-0.023087	
87159.133088	-0.022423	
87159.135090	-0.022072	
87159.137089	-0.021730	
87159.139089	-0.021187	
87159.141089	-0.020458	
87159.143090	-0.021827	
87159.147087	-0.020464	
87159.149089	-0.021589	
87159.151089	-0.021863	
87159.155090	-0.020191	
87159.157090	-0.019916	
87159.159091	-0.019885	
87159.161089	-0.021376	
87159.163090	-0.019544	
87159.165090	-0.020228	
87159.169089	-0.020727	
87159.173089	-0.020636	
87159.175091	-0.019684	
87159.177091	-0.019504	
87159.179089	-0.019782	
87159.181090	-0.020514	
87159.185087	-0.019556	
87159.187090	-0.019707	
87159.189089	-0.019706	
87159.193089	-0.020408	
87159.195089	-0.018363	
87159.199087	-0.019015	
87159.201090	-0.018300	
87159.203093	-0.017634	
87159.207089	-0.019913	
87159.211091	-0.018948	
87159.213089	-0.017983	
87159.215089	-0.017974	
87159.217090	-0.018466	
87159.219090	-0.017750	
87159.223087	-0.018136	
87159.225089	-0.018229	
87159.227090	-0.018588	
87159.231090	-0.018188	
87159.233089	-0.017269	
87159.235090	-0.016415	
87159.237089	-0.016967	
87159.239091	-0.016463	
87159.241089	-0.016790	
87159.245095	-0.017911	
87159.249095	-0.017004	
87159.251096	-0.016086	
87159.253096	-0.015556	
87159.255095	-0.016420	
87159.257096	-0.015661	
87159.261094	-0.016335	
87159.263095	-0.016338	
87159.265096	-0.016270	
87159.269095	-0.016486	
87159.271095	-0.015295	
87159.273095	-0.015684	
87159.277094	-0.015692	
87159.279095	-0.014414	
87159.281099	-0.016362	
87159.285101	-0.015773	
87159.287102	-0.014753	
87159.289102	-0.014631	
87159.291101	-0.014229	
87159.293102	-0.014209	
87159.295102	-0.014131	
87159.297101	-0.014621	
87159.299101	-0.014720	
87159.301102	-0.013539	
87159.305107	-0.014812	
87159.307111	-0.013986	
87159.309109	-0.014531	
87159.311107	-0.013315	
87159.313107	-0.013074	
87159.315108	-0.014027	
87159.317108	-0.013582	
87159.319108	-0.013257	
87159.321108	-0.013943	
87159.323109	-0.013932	
87159.327108	-0.013755	
87159.329107	-0.013227	
87159.331108	-0.012091	
87159.333107	-0.013216	
87159.335108	-0.012172	
87159.337107	-0.012167	
87159.341107	-0.011600	
87159.343109	-0.012208	
87159.345108	-0.012511	
87159.349107	-0.012903	
87159.351107	-0.011226	
87159.353107	-0.010973	
87159.355107	-0.011064	
87159.357108	-0.009683	
87159.361105	-0.011184	
87159.365106	-0.011792	
87159.367108	-0.010325	
87159.369108	-0.009977	
87159.371109	-0.010423	
87159.373106	-0.008928	
87159.375108	-0.010030	
87159.379107	-0.010179	
87159.381107	-0.010594	
87159.383107	-0.010621	
87159.387109	-0.010237	
87159.389109	-0.008787	
87159.391109	-0.009297	
87159.393107	-0.009247	
87159.395108	-0.008207	
87159.397107	-0.008945	
87159.401106	-0.010134	
87159.405110	-0.009680	
87159.407111	-0.007983	
87159.409112	-0.009001	
87159.411109	-0.009600	
87159.413110	-0.009004	
87159.417108	-0.009715	
87159.419109	-0.009766	
87159.421109	-0.010138	
87159.425110	-0.009534	
87159.427110	-0.009629	
87159.429109	-0.010287	
87159.431110	-0.010498	
87159.433110	-0.009780	
87159.435108	-0.010498	
87159.437109	-0.011146	
87159.441115	-0.010499	
87159.443115	-0.012102	
87159.445116	-0.011852	
87159.447115	-0.011155	
87159.449115	-0.011692	
87159.451116	-0.011835	
87159.453115	-0.011720	
87159.455116	-0.013354	
87159.457115	-0.013920	
